# J (http://www.cfht.hawaii.edu/Instruments/Filters/wircam.html)
# nm        Transmission (%)
1146.00     0.0
1146.20     0.533
1146.40     0.540
1146.60     0.551
1146.80     0.565
1147.00     0.574
1147.20     0.583
1147.40     0.594
1147.60     0.603
1147.80     0.609
1148.00     0.621
1148.20     0.633
1148.40     0.648
1148.60     0.665
1148.80     0.681
1149.00     0.700
1149.20     0.717
1149.40     0.729
1149.60     0.745
1149.80     0.761
1150.00     0.777
1150.20     0.793
1150.40     0.815
1150.60     0.836
1150.80     0.861
1151.00     0.885
1151.20     0.903
1151.40     0.919
1151.60     0.940
1151.80     0.961
1152.00     0.984
1152.20     1.004
1152.40     1.030
1152.60     1.051
1152.80     1.074
1153.00     1.099
1153.20     1.122
1153.40     1.143
1153.60     1.166
1153.80     1.189
1154.00     1.210
1154.20     1.234
1154.40     1.263
1154.60     1.294
1154.80     1.317
1155.00     1.347
1155.20     1.375
1155.40     1.402
1155.60     1.428
1155.80     1.462
1156.00     1.495
1156.20     1.523
1156.40     1.556
1156.60     1.588
1156.80     1.619
1157.00     1.654
1157.20     1.692
1157.40     1.733
1157.60     1.770
1157.80     1.807
1158.00     1.849
1158.20     1.889
1158.40     1.930
1158.60     1.974
1158.80     2.023
1159.00     2.072
1159.20     2.124
1159.40     2.182
1159.60     2.238
1159.80     2.304
1160.00     2.370
1160.20     2.438
1160.40     2.513
1160.60     2.594
1160.80     2.676
1161.00     2.773
1161.20     2.869
1161.40     2.971
1161.60     3.084
1161.80     3.206
1162.00     3.336
1162.20     3.479
1162.40     3.625
1162.60     3.786
1162.80     3.963
1163.00     4.152
1163.20     4.362
1163.40     4.585
1163.60     4.817
1163.80     5.072
1164.00     5.347
1164.20     5.640
1164.40     5.954
1164.60     6.290
1164.80     6.650
1165.00     7.033
1165.20     7.430
1165.40     7.852
1165.60     8.304
1165.80     8.778
1166.00     9.273
1166.20     9.792
1166.40    10.330
1166.60    10.896
1166.80    11.491
1167.00    12.102
1167.20    12.735
1167.40    13.390
1167.60    14.066
1167.80    14.763
1168.00    15.482
1168.20    16.220
1168.40    16.985
1168.60    17.760
1168.80    18.550
1169.00    19.354
1169.20    20.177
1169.40    21.010
1169.60    21.857
1169.80    22.716
1170.00    23.579
1170.20    24.451
1170.40    25.334
1170.60    26.218
1170.80    27.104
1171.00    27.998
1171.20    28.882
1171.40    29.762
1171.60    30.643
1171.80    31.523
1172.00    32.397
1172.20    33.267
1172.40    34.125
1172.60    34.972
1172.80    35.814
1173.00    36.636
1173.20    37.450
1173.40    38.251
1173.60    39.038
1173.80    39.813
1174.00    40.576
1174.20    41.324
1174.40    42.061
1174.60    42.783
1174.80    43.492
1175.00    44.191
1175.20    44.879
1175.40    45.557
1175.60    46.228
1175.80    46.892
1176.00    47.543
1176.20    48.192
1176.40    48.836
1176.60    49.480
1176.80    50.119
1177.00    50.758
1177.20    51.392
1177.40    52.026
1177.60    52.657
1177.80    53.287
1178.00    53.918
1178.20    54.547
1178.40    55.183
1178.60    55.817
1178.80    56.454
1179.00    57.086
1179.20    57.727
1179.40    58.368
1179.60    59.007
1179.80    59.645
1180.00    60.283
1180.20    60.921
1180.40    61.559
1180.60    62.199
1180.80    62.840
1181.00    63.480
1181.20    64.114
1181.40    64.745
1181.60    65.359
1181.80    65.971
1182.00    66.577
1182.20    67.177
1182.40    67.761
1182.60    68.333
1182.80    68.895
1183.00    69.443
1183.20    69.974
1183.40    70.490
1183.60    70.984
1183.80    71.455
1184.00    71.915
1184.20    72.343
1184.40    72.748
1184.60    73.135
1184.80    73.500
1185.00    73.840
1185.20    74.149
1185.40    74.435
1185.60    74.702
1185.80    74.937
1186.00    75.150
1186.20    75.334
1186.40    75.499
1186.60    75.638
1186.80    75.760
1187.00    75.862
1187.20    75.937
1187.40    76.003
1187.60    76.053
1187.80    76.080
1188.00    76.096
1188.20    76.102
1188.40    76.102
1188.60    76.088
1188.80    76.062
1189.00    76.031
1189.20    75.999
1189.40    75.964
1189.60    75.928
1189.80    75.887
1190.00    75.848
1190.20    75.809
1190.40    75.774
1190.60    75.740
1190.80    75.714
1191.00    75.691
1191.20    75.674
1191.40    75.662
1191.60    75.659
1191.80    75.668
1192.00    75.682
1192.20    75.711
1192.40    75.748
1192.60    75.800
1192.80    75.854
1193.00    75.923
1193.20    76.003
1193.40    76.096
1193.60    76.201
1193.80    76.314
1194.00    76.439
1194.20    76.576
1194.40    76.727
1194.60    76.881
1194.80    77.045
1195.00    77.213
1195.20    77.391
1195.40    77.576
1195.60    77.759
1195.80    77.945
1196.00    78.134
1196.20    78.326
1196.40    78.523
1196.60    78.714
1196.80    78.906
1197.00    79.094
1197.20    79.283
1197.40    79.469
1197.60    79.649
1197.80    79.825
1198.00    79.999
1198.20    80.171
1198.40    80.341
1198.60    80.501
1198.80    80.658
1199.00    80.809
1199.20    80.956
1199.40    81.096
1199.60    81.224
1199.80    81.345
1200.00    81.462
1200.20    81.570
1200.40    81.670
1200.60    81.764
1200.80    81.856
1201.00    81.940
1201.20    82.014
1201.40    82.086
1201.60    82.146
1201.80    82.199
1202.00    82.251
1202.20    82.298
1202.40    82.341
1202.60    82.376
1202.80    82.407
1203.00    82.439
1203.20    82.460
1203.40    82.484
1203.60    82.506
1203.80    82.524
1204.00    82.533
1204.20    82.545
1204.40    82.555
1204.60    82.561
1204.80    82.568
1205.00    82.582
1205.20    82.591
1205.40    82.591
1205.60    82.599
1205.80    82.608
1206.00    82.620
1206.20    82.628
1206.40    82.643
1206.60    82.652
1206.80    82.663
1207.00    82.677
1207.20    82.690
1207.40    82.704
1207.60    82.718
1207.80    82.735
1208.00    82.753
1208.20    82.773
1208.40    82.790
1208.60    82.817
1208.80    82.843
1209.00    82.869
1209.20    82.895
1209.40    82.928
1209.60    82.957
1209.80    82.991
1210.00    83.025
1210.20    83.061
1210.40    83.105
1210.60    83.150
1210.80    83.206
1211.00    83.255
1211.20    83.304
1211.40    83.354
1211.60    83.411
1211.80    83.466
1212.00    83.514
1212.20    83.574
1212.40    83.632
1212.60    83.685
1212.80    83.743
1213.00    83.798
1213.20    83.861
1213.40    83.917
1213.60    83.971
1213.80    84.023
1214.00    84.070
1214.20    84.114
1214.40    84.164
1214.60    84.213
1214.80    84.258
1215.00    84.299
1215.20    84.346
1215.40    84.386
1215.60    84.424
1215.80    84.462
1216.00    84.502
1216.20    84.540
1216.40    84.572
1216.60    84.608
1216.80    84.641
1217.00    84.669
1217.20    84.698
1217.40    84.729
1217.60    84.750
1217.80    84.770
1218.00    84.789
1218.20    84.808
1218.40    84.827
1218.60    84.843
1218.80    84.865
1219.00    84.885
1219.20    84.901
1219.40    84.914
1219.60    84.929
1219.80    84.940
1220.00    84.955
1220.20    84.969
1220.40    84.976
1220.60    84.991
1220.80    85.005
1221.00    85.016
1221.20    85.031
1221.40    85.040
1221.60    85.048
1221.80    85.057
1222.00    85.060
1222.20    85.059
1222.40    85.062
1222.60    85.063
1222.80    85.063
1223.00    85.059
1223.20    85.056
1223.40    85.051
1223.60    85.051
1223.80    85.042
1224.00    85.030
1224.20    85.017
1224.40    85.005
1224.60    84.998
1224.80    84.990
1225.00    84.978
1225.20    84.962
1225.40    84.953
1225.60    84.943
1225.80    84.932
1226.00    84.920
1226.20    84.908
1226.40    84.897
1226.60    84.886
1226.80    84.879
1227.00    84.871
1227.20    84.868
1227.40    84.866
1227.60    84.860
1227.80    84.854
1228.00    84.846
1228.20    84.845
1228.40    84.840
1228.60    84.839
1228.80    84.834
1229.00    84.833
1229.20    84.834
1229.40    84.834
1229.60    84.834
1229.80    84.836
1230.00    84.837
1230.20    84.839
1230.40    84.848
1230.60    84.853
1230.80    84.866
1231.00    84.875
1231.20    84.889
1231.40    84.903
1231.60    84.918
1231.80    84.933
1232.00    84.949
1232.20    84.967
1232.40    84.979
1232.60    85.004
1232.80    85.020
1233.00    85.042
1233.20    85.060
1233.40    85.080
1233.60    85.098
1233.80    85.115
1234.00    85.133
1234.20    85.158
1234.40    85.179
1234.60    85.204
1234.80    85.223
1235.00    85.246
1235.20    85.272
1235.40    85.298
1235.60    85.329
1235.80    85.353
1236.00    85.382
1236.20    85.413
1236.40    85.445
1236.60    85.472
1236.80    85.506
1237.00    85.541
1237.20    85.568
1237.40    85.597
1237.60    85.625
1237.80    85.651
1238.00    85.684
1238.20    85.709
1238.40    85.742
1238.60    85.765
1238.80    85.791
1239.00    85.815
1239.20    85.840
1239.40    85.855
1239.60    85.870
1239.80    85.889
1240.00    85.902
1240.20    85.918
1240.40    85.933
1240.60    85.941
1240.80    85.956
1241.00    85.971
1241.20    85.982
1241.40    85.992
1241.60    85.995
1241.80    86.006
1242.00    86.011
1242.20    86.017
1242.40    86.018
1242.60    86.026
1242.80    86.032
1243.00    86.035
1243.20    86.035
1243.40    86.028
1243.60    86.021
1243.80    86.018
1244.00    86.014
1244.20    86.006
1244.40    85.999
1244.60    85.994
1244.80    85.985
1245.00    85.977
1245.20    85.970
1245.40    85.962
1245.60    85.950
1245.80    85.941
1246.00    85.930
1246.20    85.919
1246.40    85.910
1246.60    85.901
1246.80    85.893
1247.00    85.881
1247.20    85.866
1247.40    85.855
1247.60    85.841
1247.80    85.825
1248.00    85.809
1248.20    85.793
1248.40    85.779
1248.60    85.762
1248.80    85.748
1249.00    85.738
1249.20    85.727
1249.40    85.718
1249.60    85.709
1249.80    85.701
1250.00    85.692
1250.20    85.689
1250.40    85.684
1250.60    85.677
1250.80    85.675
1251.00    85.669
1251.20    85.664
1251.40    85.661
1251.60    85.654
1251.80    85.651
1252.00    85.651
1252.20    85.646
1252.40    85.635
1252.60    85.631
1252.80    85.625
1253.00    85.622
1253.20    85.617
1253.40    85.608
1253.60    85.602
1253.80    85.599
1254.00    85.590
1254.20    85.588
1254.40    85.582
1254.60    85.574
1254.80    85.576
1255.00    85.574
1255.20    85.567
1255.40    85.565
1255.60    85.568
1255.80    85.564
1256.00    85.561
1256.20    85.559
1256.40    85.553
1256.60    85.548
1256.80    85.548
1257.00    85.544
1257.20    85.544
1257.40    85.545
1257.60    85.547
1257.80    85.545
1258.00    85.541
1258.20    85.536
1258.40    85.533
1258.60    85.527
1258.80    85.516
1259.00    85.507
1259.20    85.501
1259.40    85.489
1259.60    85.483
1259.80    85.477
1260.00    85.463
1260.20    85.448
1260.40    85.429
1260.60    85.410
1260.80    85.390
1261.00    85.371
1261.20    85.347
1261.40    85.327
1261.60    85.303
1261.80    85.278
1262.00    85.251
1262.20    85.225
1262.40    85.190
1262.60    85.156
1262.80    85.124
1263.00    85.086
1263.20    85.049
1263.40    85.011
1263.60    84.976
1263.80    84.941
1264.00    84.900
1264.20    84.860
1264.40    84.827
1264.60    84.781
1264.80    84.741
1265.00    84.700
1265.20    84.662
1265.40    84.618
1265.60    84.576
1265.80    84.534
1266.00    84.492
1266.20    84.451
1266.40    84.407
1266.60    84.372
1266.80    84.334
1267.00    84.293
1267.20    84.253
1267.40    84.213
1267.60    84.174
1267.80    84.138
1268.00    84.105
1268.20    84.071
1268.40    84.039
1268.60    84.010
1268.80    83.987
1269.00    83.965
1269.20    83.940
1269.40    83.920
1269.60    83.900
1269.80    83.876
1270.00    83.853
1270.20    83.835
1270.40    83.824
1270.60    83.813
1270.80    83.804
1271.00    83.794
1271.20    83.789
1271.40    83.789
1271.60    83.794
1271.80    83.800
1272.00    83.806
1272.20    83.820
1272.40    83.833
1272.60    83.855
1272.80    83.879
1273.00    83.905
1273.20    83.934
1273.40    83.965
1273.60    83.998
1273.80    84.032
1274.00    84.068
1274.20    84.114
1274.40    84.155
1274.60    84.195
1274.80    84.239
1275.00    84.293
1275.20    84.343
1275.40    84.395
1275.60    84.450
1275.80    84.502
1276.00    84.563
1276.20    84.625
1276.40    84.688
1276.60    84.744
1276.80    84.805
1277.00    84.871
1277.20    84.932
1277.40    84.996
1277.60    85.059
1277.80    85.118
1278.00    85.176
1278.20    85.231
1278.40    85.286
1278.60    85.335
1278.80    85.385
1279.00    85.435
1279.20    85.480
1279.40    85.527
1279.60    85.574
1279.80    85.623
1280.00    85.667
1280.20    85.709
1280.40    85.750
1280.60    85.780
1280.80    85.815
1281.00    85.844
1281.20    85.875
1281.40    85.899
1281.60    85.924
1281.80    85.947
1282.00    85.963
1282.20    85.980
1282.40    85.991
1282.60    85.995
1282.80    85.997
1283.00    85.999
1283.20    85.995
1283.40    85.986
1283.60    85.980
1283.80    85.963
1284.00    85.948
1284.20    85.939
1284.40    85.916
1284.60    85.892
1284.80    85.872
1285.00    85.846
1285.20    85.817
1285.40    85.779
1285.60    85.744
1285.80    85.710
1286.00    85.669
1286.20    85.620
1286.40    85.571
1286.60    85.524
1286.80    85.468
1287.00    85.419
1287.20    85.362
1287.40    85.303
1287.60    85.248
1287.80    85.191
1288.00    85.130
1288.20    85.071
1288.40    85.010
1288.60    84.949
1288.80    84.886
1289.00    84.822
1289.20    84.760
1289.40    84.705
1289.60    84.645
1289.80    84.583
1290.00    84.523
1290.20    84.462
1290.40    84.404
1290.60    84.348
1290.80    84.291
1291.00    84.233
1291.20    84.175
1291.40    84.123
1291.60    84.073
1291.80    84.026
1292.00    83.983
1292.20    83.940
1292.40    83.902
1292.60    83.862
1292.80    83.829
1293.00    83.801
1293.20    83.775
1293.40    83.752
1293.60    83.730
1293.80    83.705
1294.00    83.682
1294.20    83.664
1294.40    83.644
1294.60    83.627
1294.80    83.612
1295.00    83.598
1295.20    83.589
1295.40    83.575
1295.60    83.566
1295.80    83.559
1296.00    83.549
1296.20    83.539
1296.40    83.533
1296.60    83.528
1296.80    83.521
1297.00    83.521
1297.20    83.513
1297.40    83.511
1297.60    83.511
1297.80    83.507
1298.00    83.505
1298.20    83.508
1298.40    83.505
1298.60    83.510
1298.80    83.510
1299.00    83.511
1299.20    83.516
1299.40    83.516
1299.60    83.519
1299.80    83.521
1300.00    83.525
1300.20    83.525
1300.40    83.528
1300.60    83.530
1300.80    83.531
1301.00    83.537
1301.20    83.537
1301.40    83.531
1301.60    83.528
1301.80    83.514
1302.00    83.505
1302.20    83.496
1302.40    83.482
1302.60    83.470
1302.80    83.452
1303.00    83.432
1303.20    83.412
1303.40    83.391
1303.60    83.371
1303.80    83.348
1304.00    83.321
1304.20    83.290
1304.40    83.261
1304.60    83.232
1304.80    83.203
1305.00    83.182
1305.20    83.157
1305.40    83.130
1305.60    83.099
1305.80    83.076
1306.00    83.047
1306.20    83.020
1306.40    82.996
1306.60    82.968
1306.80    82.939
1307.00    82.913
1307.20    82.887
1307.40    82.857
1307.60    82.835
1307.80    82.816
1308.00    82.790
1308.20    82.767
1308.40    82.742
1308.60    82.718
1308.80    82.698
1309.00    82.674
1309.20    82.657
1309.40    82.646
1309.60    82.626
1309.80    82.610
1310.00    82.594
1310.20    82.582
1310.40    82.570
1310.60    82.561
1310.80    82.550
1311.00    82.539
1311.20    82.529
1311.40    82.521
1311.60    82.512
1311.80    82.507
1312.00    82.506
1312.20    82.512
1312.40    82.515
1312.60    82.512
1312.80    82.515
1313.00    82.524
1313.20    82.536
1313.40    82.550
1313.60    82.567
1313.80    82.584
1314.00    82.602
1314.20    82.617
1314.40    82.640
1314.60    82.658
1314.80    82.683
1315.00    82.701
1315.20    82.716
1315.40    82.732
1315.60    82.748
1315.80    82.770
1316.00    82.791
1316.20    82.806
1316.40    82.822
1316.60    82.834
1316.80    82.849
1317.00    82.861
1317.20    82.869
1317.40    82.883
1317.60    82.892
1317.80    82.898
1318.00    82.898
1318.20    82.896
1318.40    82.899
1318.60    82.887
1318.80    82.878
1319.00    82.855
1319.20    82.829
1319.40    82.794
1319.60    82.748
1319.80    82.700
1320.00    82.643
1320.20    82.578
1320.40    82.501
1320.60    82.410
1320.80    82.312
1321.00    82.199
1321.20    82.072
1321.40    81.929
1321.60    81.767
1321.80    81.593
1322.00    81.403
1322.20    81.198
1322.40    80.975
1322.60    80.730
1322.80    80.469
1323.00    80.186
1323.20    79.881
1323.40    79.549
1323.60    79.196
1323.80    78.816
1324.00    78.416
1324.20    77.983
1324.40    77.522
1324.60    77.043
1324.80    76.535
1325.00    75.995
1325.20    75.420
1325.40    74.814
1325.60    74.182
1325.80    73.529
1326.00    72.841
1326.20    72.122
1326.40    71.378
1326.60    70.604
1326.80    69.797
1327.00    68.968
1327.20    68.100
1327.40    67.216
1327.60    66.307
1327.80    65.369
1328.00    64.404
1328.20    63.422
1328.40    62.419
1328.60    61.397
1328.80    60.350
1329.00    59.280
1329.20    58.195
1329.40    57.097
1329.60    55.981
1329.80    54.860
1330.00    53.726
1330.20    52.580
1330.40    51.425
1330.60    50.259
1330.80    49.097
1331.00    47.929
1331.20    46.754
1331.40    45.580
1331.60    44.406
1331.80    43.231
1332.00    42.068
1332.20    40.913
1332.40    39.761
1332.60    38.618
1332.80    37.486
1333.00    36.362
1333.20    35.251
1333.40    34.151
1333.60    33.072
1333.80    32.008
1334.00    30.959
1334.20    29.922
1334.40    28.912
1334.60    27.924
1334.80    26.959
1335.00    26.012
1335.20    25.085
1335.40    24.174
1335.60    23.293
1335.80    22.433
1336.00    21.597
1336.20    20.781
1336.40    19.995
1336.60    19.229
1336.80    18.486
1337.00    17.767
1337.20    17.070
1337.40    16.402
1337.60    15.756
1337.80    15.131
1338.00    14.529
1338.20    13.950
1338.40    13.390
1338.60    12.854
1338.80    12.338
1339.00    11.841
1339.20    11.360
1339.40    10.904
1339.60    10.461
1339.80    10.042
1340.00     9.642
1340.20     9.256
1340.40     8.890
1340.60     8.530
1340.80     8.192
1341.00     7.866
1341.20     7.549
1341.40     7.251
1341.60     6.970
1341.80     6.702
1342.00     6.439
1342.20     6.187
1342.40     5.951
1342.60     5.719
1342.80     5.498
1343.00     5.289
1343.20     5.083
1343.40     4.889
1343.60     4.700
1343.80     4.521
1344.00     4.352
1344.20     4.184
1344.40     4.031
1344.60     3.877
1344.80     3.732
1345.00     3.589
1345.20     3.458
1345.40     3.333
1345.60     3.209
1345.80     3.091
1346.00     2.979
1346.20     2.870
1346.40     2.771
1346.60     2.670
1346.80     2.576
1347.00     2.487
1347.20     2.396
1347.40     2.313
1347.60     2.228
1347.80     2.151
1348.00     2.075
1348.20     2.002
1348.40     1.930
1348.60     1.859
1348.80     1.790
1349.00     1.724
1349.20     1.669
1349.40     1.610
1349.60     1.553
1349.80     1.498
1350.00     1.448
1350.20     1.398
1350.40     1.350
1350.60     1.305
1350.80     1.259
1351.00     1.218
1351.20     1.175
1351.40     1.137
1351.60     1.100
1351.80     1.070
1352.00     1.036
1352.20     1.001
1352.40     0.964
1352.60     0.935
1352.80     0.905
1353.00     0.873
1353.20     0.842
1353.40     0.813
1353.60     0.786
1353.80     0.761
1354.00     0.740
1354.20     0.713
1354.40     0.688
1354.60     0.664
1354.80     0.639
1355.00     0.618
1355.20     0.603
1355.40     0.587
1355.60     0.572
1355.80     0.557
1356.00     0.542
1356.20     0.528
1356.40     0.513
1356.60     0.497
1356.80     0.485
1357.00     0.471
1357.20     0.459
1357.40     0.450
1357.60     0.438
1357.80     0.420
1358.00     0.414
1358.20     0.401
1358.40     0.392
1358.60     0.381
1358.80     0.369
1359.00     0.356
1359.20     0.340
1359.40     0.333
1359.60     0.323
1359.80     0.320
1360.00     0.314
1361.00     0.0
