 # Ks   (http://www.cfht.hawaii.edu/Instruments/Filters/wircam.html)
 # nm        Transmission (%)
 1922.00     0.0
 1922.50    -0.443
 1923.00    -0.462
 1923.50    -0.420
 1924.00    -0.545
 1924.50    -0.482
 1925.00    -0.461
 1925.50    -0.543
 1926.00    -0.668
 1926.50    -0.647
 1927.00    -0.543
 1927.50    -0.522
 1928.00    -0.522
 1928.50    -0.604
 1929.00    -0.644
 1929.50    -0.542
 1930.00    -0.435
 1930.50    -0.331
 1931.00    -0.394
 1931.50    -0.351
 1932.00    -0.351
 1932.50    -0.330
 1933.00    -0.186
 1933.50    -0.311
 1934.00    -0.394
 1934.50    -0.415
 1935.00    -0.311
 1935.50    -0.395
 1936.00    -0.293
 1936.50    -0.334
 1937.00    -0.375
 1937.50    -0.272
 1938.00    -0.146
 1938.50    -0.105
 1939.00    -0.249
 1939.50    -0.124
 1940.00    -0.145
 1940.50    -0.185
 1941.00    -0.266
 1941.50    -0.204
 1942.00    -0.124
 1942.50    -0.044
 1943.00    -0.023
 1943.50    -0.124
 1944.00    -0.165
 1944.50    -0.124
 1945.00    -0.021
 1945.50    -0.082
 1946.00    -0.203
 1946.50    -0.345
 1947.00    -0.284
 1947.50    -0.063
 1948.00    -0.021
 1948.50    -0.002
 1949.00     0.079
 1949.50     0.159
 1950.00     0.139
 1950.50     0.200
 1951.00     0.220
 1951.50     0.220
 1952.00     0.240
 1952.50     0.398
 1953.00     0.438
 1953.50     0.418
 1954.00     0.539
 1954.50     0.598
 1955.00     0.658
 1955.50     0.595
 1956.00     0.754
 1956.50     0.731
 1957.00     0.829
 1957.50     0.906
 1958.00     1.042
 1958.50     1.176
 1959.00     1.387
 1959.50     1.561
 1960.00     1.578
 1960.50     1.714
 1961.00     1.770
 1961.50     1.942
 1962.00     2.057
 1962.50     2.283
 1963.00     2.376
 1963.50     2.431
 1964.00     2.641
 1964.50     2.940
 1965.00     3.188
 1965.50     3.513
 1966.00     3.841
 1966.50     4.109
 1967.00     4.437
 1967.50     4.858
 1968.00     5.138
 1968.50     5.484
 1969.00     5.833
 1969.50     6.160
 1970.00     6.641
 1970.50     7.022
 1971.00     7.552
 1971.50     8.191
 1972.00     8.948
 1972.50     9.470
 1973.00    10.268
 1973.50    11.011
 1974.00    11.623
 1974.50    12.466
 1975.00    13.254
 1975.50    14.134
 1976.00    15.041
 1976.50    16.124
 1977.00    17.024
 1977.50    18.124
 1978.00    19.298
 1978.50    20.563
 1979.00    21.848
 1979.50    23.201
 1980.00    24.522
 1980.50    25.993
 1981.00    27.560
 1981.50    29.164
 1982.00    30.975
 1982.50    32.809
 1983.00    34.734
 1983.50    36.688
 1984.00    38.693
 1984.50    40.785
 1985.00    42.859
 1985.50    45.116
 1986.00    47.171
 1986.50    49.217
 1987.00    51.314
 1987.50    53.391
 1988.00    55.516
 1988.50    57.697
 1989.00    60.068
 1989.50    62.231
 1990.00    64.407
 1990.50    66.554
 1991.00    68.594
 1991.50    70.721
 1992.00    72.710
 1992.50    74.504
 1993.00    76.048
 1993.50    77.513
 1994.00    79.004
 1994.50    80.415
 1995.00    81.711
 1995.50    82.915
 1996.00    84.143
 1996.50    85.373
 1997.00    86.440
 1997.50    87.405
 1998.00    88.304
 1998.50    89.075
 1999.00    89.919
 1999.50    90.440
 2000.00    90.967
 2000.50    91.188
 2001.00    91.666
 2001.50    92.082
 2002.00    92.412
 2002.50    92.625
 2003.00    92.831
 2003.50    93.076
 2004.00    93.251
 2004.50    93.504
 2005.00    93.596
 2005.50    93.724
 2006.00    94.005
 2006.50    94.374
 2007.00    94.580
 2007.50    94.778
 2008.00    94.962
 2008.50    95.065
 2009.00    95.277
 2009.50    95.343
 2010.00    95.341
 2010.50    95.186
 2011.00    95.288
 2011.50    95.451
 2012.00    95.567
 2012.50    95.743
 2013.00    95.912
 2013.50    96.199
 2014.00    96.356
 2014.50    96.637
 2015.00    96.844
 2015.50    96.974
 2016.00    97.081
 2016.50    97.134
 2017.00    97.110
 2017.50    97.029
 2018.00    97.119
 2018.50    97.116
 2019.00    97.064
 2019.50    97.020
 2020.00    97.121
 2020.50    97.093
 2021.00    97.212
 2021.50    97.327
 2022.00    97.171
 2022.50    97.087
 2023.00    96.954
 2023.50    96.814
 2024.00    96.402
 2024.50    96.315
 2025.00    96.193
 2025.50    95.975
 2026.00    95.950
 2026.50    95.885
 2027.00    95.857
 2027.50    95.900
 2028.00    96.091
 2028.50    96.243
 2029.00    96.196
 2029.50    96.303
 2030.00    96.184
 2030.50    96.140
 2031.00    95.940
 2031.50    95.866
 2032.00    95.808
 2032.50    95.671
 2033.00    95.471
 2033.50    95.296
 2034.00    95.323
 2034.50    95.267
 2035.00    95.348
 2035.50    95.375
 2036.00    95.241
 2036.50    95.099
 2037.00    95.035
 2037.50    95.030
 2038.00    94.958
 2038.50    94.962
 2039.00    94.896
 2039.50    94.725
 2040.00    94.615
 2040.50    94.667
 2041.00    94.818
 2041.50    94.902
 2042.00    94.997
 2042.50    94.992
 2043.00    94.885
 2043.50    94.894
 2044.00    95.076
 2044.50    95.090
 2045.00    95.001
 2045.50    94.873
 2046.00    94.640
 2046.50    94.467
 2047.00    94.440
 2047.50    94.370
 2048.00    94.354
 2048.50    94.101
 2049.00    94.002
 2049.50    93.973
 2050.00    93.883
 2050.50    93.901
 2051.00    93.964
 2051.50    94.061
 2052.00    93.848
 2052.50    94.075
 2053.00    94.142
 2053.50    94.257
 2054.00    94.461
 2054.50    94.748
 2055.00    94.810
 2055.50    94.766
 2056.00    94.943
 2056.50    94.948
 2057.00    94.952
 2057.50    94.830
 2058.00    94.756
 2058.50    94.577
 2059.00    94.600
 2059.50    94.678
 2060.00    94.630
 2060.50    94.678
 2061.00    94.759
 2061.50    94.870
 2062.00    95.079
 2062.50    94.995
 2063.00    94.984
 2063.50    94.821
 2064.00    94.856
 2064.50    94.846
 2065.00    94.838
 2065.50    94.836
 2066.00    94.807
 2066.50    94.926
 2067.00    94.978
 2067.50    95.235
 2068.00    95.477
 2068.50    95.535
 2069.00    95.656
 2069.50    95.749
 2070.00    95.821
 2070.50    95.970
 2071.00    96.075
 2071.50    96.106
 2072.00    95.956
 2072.50    95.956
 2073.00    95.956
 2073.50    95.999
 2074.00    96.068
 2074.50    96.281
 2075.00    96.254
 2075.50    96.365
 2076.00    96.550
 2076.50    96.765
 2077.00    96.857
 2077.50    97.006
 2078.00    97.086
 2078.50    97.009
 2079.00    97.084
 2079.50    97.133
 2080.00    97.156
 2080.50    97.139
 2081.00    97.298
 2081.50    97.267
 2082.00    97.328
 2082.50    97.336
 2083.00    97.438
 2083.50    97.496
 2084.00    97.672
 2084.50    97.729
 2085.00    97.739
 2085.50    98.009
 2086.00    98.053
 2086.50    98.190
 2087.00    98.402
 2087.50    98.482
 2088.00    98.454
 2088.50    98.521
 2089.00    98.549
 2089.50    98.384
 2090.00    98.421
 2090.50    98.274
 2091.00    97.961
 2091.50    97.736
 2092.00    97.566
 2092.50    97.414
 2093.00    97.301
 2093.50    97.330
 2094.00    97.263
 2094.50    97.499
 2095.00    97.713
 2095.50    97.794
 2096.00    97.920
 2096.50    98.053
 2097.00    97.932
 2097.50    97.980
 2098.00    97.946
 2098.50    97.871
 2099.00    97.655
 2099.50    97.675
 2100.00    97.627
 2100.50    97.664
 2101.00    97.928
 2101.50    97.736
 2102.00    97.864
 2102.50    97.626
 2103.00    97.733
 2103.50    97.620
 2104.00    97.482
 2104.50    97.418
 2105.00    97.264
 2105.50    97.389
 2106.00    97.192
 2106.50    97.354
 2107.00    97.406
 2107.50    97.476
 2108.00    97.437
 2108.50    97.324
 2109.00    97.223
 2109.50    97.072
 2110.00    97.083
 2110.50    97.026
 2111.00    96.909
 2111.50    96.924
 2112.00    97.044
 2112.50    97.018
 2113.00    96.863
 2113.50    96.875
 2114.00    96.831
 2114.50    96.777
 2115.00    96.765
 2115.50    96.620
 2116.00    96.585
 2116.50    96.564
 2117.00    96.695
 2117.50    96.788
 2118.00    96.751
 2118.50    96.674
 2119.00    96.771
 2119.50    96.819
 2120.00    96.873
 2120.50    96.893
 2121.00    96.928
 2121.50    96.715
 2122.00    96.883
 2122.50    96.901
 2123.00    96.777
 2123.50    96.825
 2124.00    96.704
 2124.50    96.632
 2125.00    96.643
 2125.50    96.860
 2126.00    96.783
 2126.50    96.715
 2127.00    96.831
 2127.50    96.736
 2128.00    96.828
 2128.50    96.817
 2129.00    96.860
 2129.50    96.809
 2130.00    97.003
 2130.50    97.325
 2131.00    97.444
 2131.50    97.426
 2132.00    97.481
 2132.50    97.603
 2133.00    97.681
 2133.50    97.758
 2134.00    97.705
 2134.50    97.702
 2135.00    97.597
 2135.50    97.763
 2136.00    97.777
 2136.50    97.719
 2137.00    97.859
 2137.50    97.861
 2138.00    97.813
 2138.50    97.757
 2139.00    97.882
 2139.50    97.856
 2140.00    97.804
 2140.50    97.977
 2141.00    98.030
 2141.50    97.923
 2142.00    97.842
 2142.50    97.887
 2143.00    97.733
 2143.50    97.780
 2144.00    97.789
 2144.50    97.546
 2145.00    97.263
 2145.50    97.258
 2146.00    97.366
 2146.50    97.375
 2147.00    97.411
 2147.50    97.520
 2148.00    97.639
 2148.50    98.021
 2149.00    97.983
 2149.50    97.893
 2150.00    97.646
 2150.50    97.307
 2151.00    97.319
 2151.50    97.279
 2152.00    97.295
 2152.50    97.099
 2153.00    97.079
 2153.50    97.318
 2154.00    97.302
 2154.50    97.487
 2155.00    97.507
 2155.50    97.495
 2156.00    97.395
 2156.50    97.391
 2157.00    97.511
 2157.50    97.272
 2158.00    97.610
 2158.50    97.568
 2159.00    97.597
 2159.50    97.490
 2160.00    97.195
 2160.50    97.177
 2161.00    97.041
 2161.50    97.069
 2162.00    96.767
 2162.50    96.852
 2163.00    96.724
 2163.50    96.719
 2164.00    97.098
 2164.50    97.177
 2165.00    97.401
 2165.50    97.531
 2166.00    97.693
 2166.50    97.612
 2167.00    97.749
 2167.50    97.664
 2168.00    97.505
 2168.50    97.560
 2169.00    97.543
 2169.50    97.475
 2170.00    97.409
 2170.50    97.482
 2171.00    97.180
 2171.50    97.313
 2172.00    97.400
 2172.50    97.089
 2173.00    96.724
 2173.50    96.599
 2174.00    96.707
 2174.50    96.564
 2175.00    96.516
 2175.50    96.420
 2176.00    96.437
 2176.50    96.535
 2177.00    96.663
 2177.50    96.678
 2178.00    96.417
 2178.50    96.420
 2179.00    96.384
 2179.50    96.355
 2180.00    96.022
 2180.50    95.807
 2181.00    95.639
 2181.50    95.639
 2182.00    95.593
 2182.50    95.647
 2183.00    95.834
 2183.50    95.874
 2184.00    95.732
 2184.50    95.677
 2185.00    95.827
 2185.50    95.592
 2186.00    95.648
 2186.50    95.517
 2187.00    95.380
 2187.50    95.175
 2188.00    95.264
 2188.50    95.242
 2189.00    95.033
 2189.50    95.073
 2190.00    94.810
 2190.50    94.688
 2191.00    94.566
 2191.50    94.443
 2192.00    94.402
 2192.50    94.438
 2193.00    94.308
 2193.50    94.115
 2194.00    94.168
 2194.50    94.243
 2195.00    94.231
 2195.50    94.331
 2196.00    94.099
 2196.50    94.067
 2197.00    93.903
 2197.50    93.890
 2198.00    93.715
 2198.50    93.523
 2199.00    93.517
 2199.50    93.480
 2200.00    93.721
 2200.50    93.716
 2201.00    94.012
 2201.50    94.305
 2202.00    94.354
 2202.50    94.566
 2203.00    94.606
 2203.50    94.719
 2204.00    94.745
 2204.50    94.691
 2205.00    94.551
 2205.50    94.427
 2206.00    94.730
 2206.50    94.521
 2207.00    94.566
 2207.50    94.553
 2208.00    94.696
 2208.50    94.690
 2209.00    94.913
 2209.50    95.151
 2210.00    95.030
 2210.50    95.250
 2211.00    95.175
 2211.50    95.137
 2212.00    95.203
 2212.50    95.386
 2213.00    95.427
 2213.50    95.386
 2214.00    95.450
 2214.50    95.502
 2215.00    95.515
 2215.50    95.547
 2216.00    95.587
 2216.50    95.818
 2217.00    95.912
 2217.50    95.868
 2218.00    96.033
 2218.50    95.975
 2219.00    96.126
 2219.50    96.049
 2220.00    95.909
 2220.50    95.728
 2221.00    95.700
 2221.50    95.842
 2222.00    95.811
 2222.50    95.837
 2223.00    95.905
 2223.50    96.062
 2224.00    96.179
 2224.50    96.277
 2225.00    96.361
 2225.50    96.313
 2226.00    96.269
 2226.50    96.454
 2227.00    96.701
 2227.50    96.989
 2228.00    97.141
 2228.50    97.292
 2229.00    97.429
 2229.50    97.502
 2230.00    97.678
 2230.50    97.723
 2231.00    97.519
 2231.50    97.456
 2232.00    97.382
 2232.50    97.327
 2233.00    97.119
 2233.50    97.131
 2234.00    97.034
 2234.50    96.828
 2235.00    96.863
 2235.50    96.558
 2236.00    96.492
 2236.50    96.481
 2237.00    96.671
 2237.50    96.632
 2238.00    96.965
 2238.50    97.029
 2239.00    97.017
 2239.50    96.986
 2240.00    97.031
 2240.50    96.948
 2241.00    96.869
 2241.50    96.504
 2242.00    95.995
 2242.50    96.010
 2243.00    95.956
 2243.50    96.060
 2244.00    95.921
 2244.50    95.848
 2245.00    95.755
 2245.50    95.970
 2246.00    96.080
 2246.50    96.182
 2247.00    96.266
 2247.50    96.431
 2248.00    96.550
 2248.50    96.527
 2249.00    96.519
 2249.50    96.625
 2250.00    96.642
 2250.50    96.466
 2251.00    96.407
 2251.50    96.227
 2252.00    96.063
 2252.50    96.019
 2253.00    95.982
 2253.50    95.847
 2254.00    95.604
 2254.50    95.627
 2255.00    95.599
 2255.50    95.491
 2256.00    95.355
 2256.50    95.338
 2257.00    95.427
 2257.50    95.526
 2258.00    95.842
 2258.50    95.691
 2259.00    95.567
 2259.50    95.514
 2260.00    95.552
 2260.50    95.528
 2261.00    95.511
 2261.50    95.476
 2262.00    95.389
 2262.50    95.375
 2263.00    95.332
 2263.50    95.293
 2264.00    95.360
 2264.50    95.409
 2265.00    95.277
 2265.50    95.219
 2266.00    95.016
 2266.50    95.113
 2267.00    95.312
 2267.50    95.378
 2268.00    95.561
 2268.50    95.413
 2269.00    95.349
 2269.50    95.406
 2270.00    95.560
 2270.50    95.552
 2271.00    95.404
 2271.50    95.415
 2272.00    95.380
 2272.50    95.610
 2273.00    95.802
 2273.50    95.961
 2274.00    96.141
 2274.50    96.301
 2275.00    96.559
 2275.50    96.957
 2276.00    96.950
 2276.50    97.070
 2277.00    97.095
 2277.50    97.142
 2278.00    97.145
 2278.50    97.075
 2279.00    97.037
 2279.50    96.996
 2280.00    96.991
 2280.50    96.707
 2281.00    96.626
 2281.50    96.489
 2282.00    96.361
 2282.50    96.140
 2283.00    96.022
 2283.50    95.738
 2284.00    95.534
 2284.50    95.506
 2285.00    95.305
 2285.50    95.102
 2286.00    94.936
 2286.50    94.901
 2287.00    94.539
 2287.50    94.312
 2288.00    94.165
 2288.50    93.932
 2289.00    93.730
 2289.50    93.439
 2290.00    93.420
 2290.50    93.263
 2291.00    93.146
 2291.50    93.053
 2292.00    92.856
 2292.50    92.697
 2293.00    92.514
 2293.50    92.343
 2294.00    91.939
 2294.50    91.704
 2295.00    91.588
 2295.50    91.269
 2296.00    91.066
 2296.50    90.819
 2297.00    90.556
 2297.50    90.115
 2298.00    89.661
 2298.50    89.082
 2299.00    88.664
 2299.50    88.107
 2300.00    87.706
 2300.50    87.274
 2301.00    86.671
 2301.50    86.165
 2302.00    85.619
 2302.50    84.955
 2303.00    83.998
 2303.50    82.976
 2304.00    81.816
 2304.50    80.537
 2305.00    79.390
 2305.50    78.192
 2306.00    76.883
 2306.50    75.519
 2307.00    74.139
 2307.50    72.838
 2308.00    71.246
 2308.50    69.725
 2309.00    67.978
 2309.50    66.141
 2310.00    64.282
 2310.50    62.294
 2311.00    60.126
 2311.50    58.058
 2312.00    56.117
 2312.50    53.928
 2313.00    51.758
 2313.50    49.535
 2314.00    47.357
 2314.50    45.309
 2315.00    43.427
 2315.50    41.277
 2316.00    39.009
 2316.50    37.064
 2317.00    35.262
 2317.50    33.429
 2318.00    31.548
 2318.50    29.773
 2319.00    28.032
 2319.50    26.483
 2320.00    25.021
 2320.50    23.511
 2321.00    22.063
 2321.50    20.773
 2322.00    19.514
 2322.50    18.355
 2323.00    17.233
 2323.50    16.023
 2324.00    14.983
 2324.50    14.117
 2325.00    13.164
 2325.50    12.335
 2326.00    11.586
 2326.50    10.764
 2327.00     9.991
 2327.50     9.462
 2328.00     8.842
 2328.50     8.237
 2329.00     7.616
 2329.50     7.008
 2330.00     6.541
 2330.50     6.175
 2331.00     5.786
 2331.50     5.499
 2332.00     5.103
 2332.50     4.707
 2333.00     4.555
 2333.50     4.399
 2334.00     4.019
 2334.50     3.726
 2335.00     3.427
 2335.50     3.050
 2336.00     2.942
 2336.50     2.820
 2337.00     2.464
 2337.50     2.161
 2338.00     2.054
 2338.50     1.830
 2339.00     1.779
 2339.50     1.753
 2340.00     1.534
 2340.50     1.221
 2341.00     1.196
 2341.50     1.056
 2342.00     1.097
 2342.50     1.097
 2343.00     1.015
 2343.50     0.874
 2344.00     0.879
 2344.50     0.909
 2345.00     0.911
 2345.50     0.911
 2346.00     0.677
 2346.50     0.502
 2347.00     0.414
 2347.50     0.204
 2348.00     0.085
 2348.50     0.146
 2349.00     0.087
 2349.50     0.119
 2350.00     0.089
 2350.50     0.090
 2351.00     0.031
 2351.50     0.150
 2352.00     0.148
 2352.50     0.060
 2353.00    -0.093
 2353.50    -0.092
 2354.00    -0.279
 2354.50    -0.188
 2355.00    -0.250
 2355.50    -0.157
 2356.00    -0.253
 2356.50    -0.191
 2357.00    -0.191
 2357.50    -0.314
 2358.00    -0.128
 2358.50    -0.159
 2359.00    -0.255
 2359.50    -0.475
 2360.00    -0.475
 2360.50    -0.694
 2361.00    -0.601
 2361.50    -0.539
 2362.00    -0.633
 2362.50    -0.665
 2363.00    -0.603
 2363.50    -0.540
 2364.00    -0.638
 2364.50    -0.543
 2365.00    -0.609
 2365.50    -0.545
 2366.00    -0.322
 2366.50    -0.291
 2367.00    -0.227
 2367.50    -0.322
 2368.00    -0.130
 2368.50    -0.195
 2369.00    -0.229
 2369.50    -0.293
 2370.00    -0.421
 2370.50    -0.421
 2371.00    -0.420
 2371.50    -0.293
 2372.00    -0.229
 2372.50    -0.229
 2373.00    -0.362
 2373.50    -0.462
 2374.00    -0.562
 2374.50    -0.763
 2375.00    -0.731
 2375.50    -0.932
 2376.00    -1.131
 2376.50    -1.167
 2377.00    -1.167
 2378.00     0.0
