# H (http://www.cfht.hawaii.edu/Instruments/Filters/wircam.html) 
# nm        Transmission (%)
1428.50     0.0
1429.00     0.056
1429.50     0.052
1430.00     0.056
1430.50     0.078
1431.00     0.089
1431.50     0.084
1432.00     0.092
1432.50     0.073
1433.00     0.063
1433.50     0.060
1434.00     0.081
1434.50     0.063
1435.00     0.049
1435.50     0.043
1436.00     0.046
1436.50     0.049
1437.00     0.032
1437.50     0.032
1438.00     0.024
1438.50     0.017
1439.00     0.024
1439.50     0.027
1440.00     0.024
1440.50     0.027
1441.00     0.053
1441.50     0.046
1442.00     0.061
1442.50     0.050
1443.00     0.050
1443.50     0.046
1444.00     0.073
1444.50     0.076
1445.00     0.058
1445.50     0.073
1446.00     0.076
1446.50     0.095
1447.00     0.102
1447.50     0.113
1448.00     0.110
1448.50     0.117
1449.00     0.133
1449.50     0.148
1450.00     0.140
1450.50     0.156
1451.00     0.163
1451.50     0.194
1452.00     0.206
1452.50     0.214
1453.00     0.229
1453.50     0.218
1454.00     0.203
1454.50     0.218
1455.00     0.233
1455.50     0.235
1456.00     0.215
1456.50     0.235
1457.00     0.262
1457.50     0.285
1458.00     0.294
1458.50     0.307
1459.00     0.314
1459.50     0.354
1460.00     0.417
1460.50     0.433
1461.00     0.435
1461.50     0.487
1462.00     0.534
1462.50     0.575
1463.00     0.612
1463.50     0.653
1464.00     0.671
1464.50     0.732
1465.00     0.813
1465.50     0.856
1466.00     0.920
1466.50     0.995
1467.00     1.085
1467.50     1.167
1468.00     1.262
1468.50     1.393
1469.00     1.506
1469.50     1.646
1470.00     1.828
1470.50     2.002
1471.00     2.194
1471.50     2.435
1472.00     2.689
1472.50     2.959
1473.00     3.279
1473.50     3.636
1474.00     4.005
1474.50     4.411
1475.00     4.855
1475.50     5.325
1476.00     5.824
1476.50     6.378
1477.00     6.964
1477.50     7.611
1478.00     8.322
1478.50     9.100
1479.00     9.918
1479.50    10.808
1480.00    11.777
1480.50    12.807
1481.00    13.870
1481.50    15.030
1482.00    16.202
1482.50    17.488
1483.00    18.848
1483.50    20.308
1484.00    21.852
1484.50    23.460
1485.00    25.143
1485.50    26.910
1486.00    28.763
1486.50    30.730
1487.00    32.729
1487.50    34.789
1488.00    36.913
1488.50    39.175
1489.00    41.461
1489.50    43.822
1490.00    46.227
1490.50    48.683
1491.00    51.155
1491.50    53.667
1492.00    56.157
1492.50    58.624
1493.00    61.078
1493.50    63.483
1494.00    65.877
1494.50    68.153
1495.00    70.401
1495.50    72.548
1496.00    74.631
1496.50    76.593
1497.00    78.485
1497.50    80.211
1498.00    81.795
1498.50    83.258
1499.00    84.634
1499.50    85.812
1500.00    86.888
1500.50    87.808
1501.00    88.660
1501.50    89.384
1502.00    90.030
1502.50    90.541
1503.00    90.953
1503.50    91.289
1504.00    91.565
1504.50    91.786
1505.00    91.949
1505.50    92.050
1506.00    92.175
1506.50    92.230
1507.00    92.255
1507.50    92.268
1508.00    92.252
1508.50    92.235
1509.00    92.204
1509.50    92.197
1510.00    92.165
1510.50    92.183
1511.00    92.216
1511.50    92.242
1512.00    92.328
1512.50    92.358
1513.00    92.407
1513.50    92.455
1514.00    92.488
1514.50    92.496
1515.00    92.531
1515.50    92.641
1516.00    92.682
1516.50    92.751
1517.00    92.790
1517.50    92.828
1518.00    92.892
1518.50    92.966
1519.00    93.015
1519.50    92.993
1520.00    92.993
1520.50    92.967
1521.00    92.970
1521.50    93.018
1522.00    93.022
1522.50    93.028
1523.00    93.040
1523.50    93.036
1524.00    93.036
1524.50    93.025
1525.00    93.015
1525.50    92.955
1526.00    92.902
1526.50    92.825
1527.00    92.747
1527.50    92.693
1528.00    92.668
1528.50    92.659
1529.00    92.615
1529.50    92.601
1530.00    92.574
1530.50    92.545
1531.00    92.535
1531.50    92.529
1532.00    92.476
1532.50    92.433
1533.00    92.393
1533.50    92.339
1534.00    92.294
1534.50    92.261
1535.00    92.230
1535.50    92.204
1536.00    92.186
1536.50    92.151
1537.00    92.140
1537.50    92.116
1538.00    92.108
1538.50    92.110
1539.00    92.096
1539.50    92.070
1540.00    92.038
1540.50    92.021
1541.00    92.021
1541.50    92.012
1542.00    91.994
1542.50    91.966
1543.00    91.940
1543.50    91.925
1544.00    91.930
1544.50    91.927
1545.00    91.902
1545.50    91.914
1546.00    91.916
1546.50    91.946
1547.00    91.951
1547.50    91.994
1548.00    92.014
1548.50    92.033
1549.00    92.052
1549.50    92.067
1550.00    92.096
1550.50    92.114
1551.00    92.168
1551.50    92.169
1552.00    92.232
1552.50    92.319
1553.00    92.393
1553.50    92.453
1554.00    92.558
1554.50    92.651
1555.00    92.715
1555.50    92.802
1556.00    92.862
1556.50    92.870
1557.00    92.918
1557.50    92.987
1558.00    92.998
1558.50    93.010
1559.00    93.036
1559.50    93.071
1560.00    93.089
1560.50    93.178
1561.00    93.224
1561.50    93.268
1562.00    93.304
1562.50    93.405
1563.00    93.503
1563.50    93.573
1564.00    93.666
1564.50    93.729
1565.00    93.840
1565.50    93.912
1566.00    94.046
1566.50    94.115
1567.00    94.135
1567.50    94.214
1568.00    94.275
1568.50    94.337
1569.00    94.373
1569.50    94.380
1570.00    94.394
1570.50    94.420
1571.00    94.510
1571.50    94.556
1572.00    94.614
1572.50    94.676
1573.00    94.716
1573.50    94.803
1574.00    94.875
1574.50    94.917
1575.00    94.975
1575.50    95.027
1576.00    95.045
1576.50    95.070
1577.00    95.157
1577.50    95.224
1578.00    95.291
1578.50    95.360
1579.00    95.401
1579.50    95.465
1580.00    95.543
1580.50    95.610
1581.00    95.657
1581.50    95.702
1582.00    95.734
1582.50    95.757
1583.00    95.775
1583.50    95.789
1584.00    95.840
1584.50    95.862
1585.00    95.856
1585.50    95.895
1586.00    95.914
1586.50    95.981
1587.00    96.042
1587.50    96.068
1588.00    96.078
1588.50    96.153
1589.00    96.202
1589.50    96.255
1590.00    96.284
1590.50    96.315
1591.00    96.350
1591.50    96.414
1592.00    96.445
1592.50    96.428
1593.00    96.434
1593.50    96.428
1594.00    96.486
1594.50    96.519
1595.00    96.524
1595.50    96.564
1596.00    96.599
1596.50    96.649
1597.00    96.698
1597.50    96.709
1598.00    96.695
1598.50    96.695
1599.00    96.738
1599.50    96.725
1600.00    96.736
1600.50    96.754
1601.00    96.753
1601.50    96.794
1602.00    96.803
1602.50    96.808
1603.00    96.791
1603.50    96.823
1604.00    96.846
1604.50    96.848
1605.00    96.921
1605.50    96.933
1606.00    96.974
1606.50    96.997
1607.00    97.015
1607.50    96.974
1608.00    96.985
1608.50    96.970
1609.00    96.913
1609.50    96.922
1610.00    96.919
1610.50    96.921
1611.00    96.930
1611.50    96.950
1612.00    96.935
1612.50    96.944
1613.00    96.948
1613.50    96.925
1614.00    96.922
1614.50    96.886
1615.00    96.869
1615.50    96.860
1616.00    96.800
1616.50    96.761
1617.00    96.716
1617.50    96.669
1618.00    96.651
1618.50    96.678
1619.00    96.672
1619.50    96.648
1620.00    96.663
1620.50    96.669
1621.00    96.667
1621.50    96.680
1622.00    96.646
1622.50    96.568
1623.00    96.548
1623.50    96.524
1624.00    96.506
1624.50    96.436
1625.00    96.396
1625.50    96.352
1626.00    96.329
1626.50    96.317
1627.00    96.277
1627.50    96.240
1628.00    96.194
1628.50    96.207
1629.00    96.162
1629.50    96.092
1630.00    96.039
1630.50    95.996
1631.00    95.959
1631.50    95.940
1632.00    95.937
1632.50    95.912
1633.00    95.963
1633.50    95.976
1634.00    95.958
1634.50    95.930
1635.00    95.863
1635.50    95.845
1636.00    95.798
1636.50    95.786
1637.00    95.724
1637.50    95.697
1638.00    95.705
1638.50    95.726
1639.00    95.741
1639.50    95.708
1640.00    95.697
1640.50    95.663
1641.00    95.634
1641.50    95.583
1642.00    95.528
1642.50    95.439
1643.00    95.406
1643.50    95.381
1644.00    95.366
1644.50    95.370
1645.00    95.323
1645.50    95.374
1646.00    95.393
1646.50    95.482
1647.00    95.543
1647.50    95.573
1648.00    95.596
1648.50    95.621
1649.00    95.663
1649.50    95.667
1650.00    95.682
1650.50    95.648
1651.00    95.641
1651.50    95.645
1652.00    95.628
1652.50    95.558
1653.00    95.541
1653.50    95.520
1654.00    95.503
1654.50    95.497
1655.00    95.486
1655.50    95.517
1656.00    95.543
1656.50    95.595
1657.00    95.657
1657.50    95.750
1658.00    95.767
1658.50    95.778
1659.00    95.792
1659.50    95.743
1660.00    95.776
1660.50    95.801
1661.00    95.877
1661.50    95.853
1662.00    95.914
1662.50    95.953
1663.00    95.996
1663.50    96.040
1664.00    96.030
1664.50    96.063
1665.00    95.990
1665.50    96.036
1666.00    96.048
1666.50    96.092
1667.00    96.066
1667.50    96.086
1668.00    96.158
1668.50    96.196
1669.00    96.291
1669.50    96.284
1670.00    96.309
1670.50    96.306
1671.00    96.364
1671.50    96.387
1672.00    96.375
1672.50    96.390
1673.00    96.385
1673.50    96.400
1674.00    96.440
1674.50    96.503
1675.00    96.581
1675.50    96.681
1676.00    96.751
1676.50    96.782
1677.00    96.812
1677.50    96.852
1678.00    96.883
1678.50    96.909
1679.00    96.889
1679.50    96.893
1680.00    96.880
1680.50    96.902
1681.00    96.950
1681.50    97.031
1682.00    97.084
1682.50    97.134
1683.00    97.214
1683.50    97.232
1684.00    97.278
1684.50    97.311
1685.00    97.299
1685.50    97.295
1686.00    97.244
1686.50    97.215
1687.00    97.183
1687.50    97.192
1688.00    97.214
1688.50    97.220
1689.00    97.299
1689.50    97.313
1690.00    97.368
1690.50    97.427
1691.00    97.478
1691.50    97.542
1692.00    97.623
1692.50    97.711
1693.00    97.725
1693.50    97.708
1694.00    97.710
1694.50    97.707
1695.00    97.708
1695.50    97.733
1696.00    97.745
1696.50    97.736
1697.00    97.720
1697.50    97.765
1698.00    97.806
1698.50    97.887
1699.00    97.957
1699.50    98.001
1700.00    97.899
1700.50    97.900
1701.00    97.874
1701.50    97.906
1702.00    97.849
1702.50    97.832
1703.00    97.829
1703.50    97.786
1704.00    97.847
1704.50    97.859
1705.00    97.931
1705.50    97.945
1706.00    97.972
1706.50    97.929
1707.00    97.884
1707.50    97.897
1708.00    97.852
1708.50    97.826
1709.00    97.763
1709.50    97.768
1710.00    97.874
1710.50    97.940
1711.00    98.000
1711.50    98.030
1712.00    98.096
1712.50    98.120
1713.00    98.244
1713.50    98.302
1714.00    98.285
1714.50    98.259
1715.00    98.248
1715.50    98.201
1716.00    98.218
1716.50    98.224
1717.00    98.204
1717.50    98.167
1718.00    98.155
1718.50    98.152
1719.00    98.132
1719.50    98.100
1720.00    98.108
1720.50    98.061
1721.00    97.993
1721.50    97.940
1722.00    97.856
1722.50    97.849
1723.00    97.865
1723.50    97.887
1724.00    97.849
1724.50    97.855
1725.00    97.852
1725.50    97.859
1726.00    97.913
1726.50    97.961
1727.00    97.943
1727.50    97.958
1728.00    98.007
1728.50    98.018
1729.00    98.016
1729.50    97.968
1730.00    97.940
1730.50    97.902
1731.00    97.878
1731.50    97.888
1732.00    97.879
1732.50    97.945
1733.00    97.974
1733.50    98.090
1734.00    98.131
1734.50    98.213
1735.00    98.248
1735.50    98.244
1736.00    98.190
1736.50    98.129
1737.00    98.128
1737.50    98.053
1738.00    97.990
1738.50    97.897
1739.00    97.884
1739.50    97.855
1740.00    97.829
1740.50    97.794
1741.00    97.742
1741.50    97.737
1742.00    97.748
1742.50    97.723
1743.00    97.623
1743.50    97.594
1744.00    97.603
1744.50    97.609
1745.00    97.586
1745.50    97.586
1746.00    97.559
1746.50    97.551
1747.00    97.580
1747.50    97.581
1748.00    97.604
1748.50    97.690
1749.00    97.746
1749.50    97.737
1750.00    97.757
1750.50    97.748
1751.00    97.800
1751.50    97.816
1752.00    97.812
1752.50    97.746
1753.00    97.789
1753.50    97.804
1754.00    97.868
1754.50    97.884
1755.00    97.902
1755.50    97.928
1756.00    97.942
1756.50    97.913
1757.00    97.874
1757.50    97.923
1758.00    97.881
1758.50    97.966
1759.00    97.966
1759.50    97.916
1760.00    97.818
1760.50    97.797
1761.00    97.705
1761.50    97.595
1762.00    97.531
1762.50    97.314
1763.00    97.144
1763.50    96.968
1764.00    96.773
1764.50    96.501
1765.00    96.153
1765.50    95.728
1766.00    95.221
1766.50    94.720
1767.00    94.113
1767.50    93.465
1768.00    92.772
1768.50    91.962
1769.00    91.045
1769.50    90.099
1770.00    88.988
1770.50    87.799
1771.00    86.488
1771.50    85.303
1772.00    84.001
1772.50    82.642
1773.00    81.192
1773.50    79.675
1774.00    78.027
1774.50    76.274
1775.00    74.406
1775.50    72.340
1776.00    70.166
1776.50    67.912
1777.00    65.556
1777.50    63.095
1778.00    60.718
1778.50    58.296
1779.00    55.852
1779.50    53.363
1780.00    50.836
1780.50    48.346
1781.00    45.946
1781.50    43.593
1782.00    41.208
1782.50    38.882
1783.00    36.705
1783.50    34.473
1784.00    32.426
1784.50    30.467
1785.00    28.529
1785.50    26.657
1786.00    24.918
1786.50    23.262
1787.00    21.683
1787.50    20.296
1788.00    18.916
1788.50    17.546
1789.00    16.380
1789.50    15.231
1790.00    14.175
1790.50    13.235
1791.00    12.286
1791.50    11.447
1792.00    10.600
1792.50     9.853
1793.00     9.145
1793.50     8.490
1794.00     7.903
1794.50     7.304
1795.00     6.781
1795.50     6.219
1796.00     5.777
1796.50     5.406
1797.00     5.023
1797.50     4.700
1798.00     4.416
1798.50     4.143
1799.00     3.906
1799.50     3.687
1800.00     3.476
1800.50     3.215
1801.00     3.011
1801.50     2.785
1802.00     2.539
1802.50     2.341
1803.00     2.132
1803.50     1.942
1804.00     1.804
1804.50     1.736
1805.00     1.649
1805.50     1.549
1806.00     1.491
1806.50     1.389
1807.00     1.350
1807.50     1.280
1808.00     1.187
1808.50     1.048
1809.00     0.943
1809.50     0.891
1810.00     0.793
1810.50     0.717
1811.00     0.620
1811.50     0.555
1812.00     0.488
1812.50     0.479
1813.00     0.424
1813.50     0.380
1814.00     0.381
1814.50     0.371
1815.00     0.372
1815.50     0.339
1816.00     0.362
1816.50     0.351
1817.00     0.328
1817.50     0.317
1818.00     0.261
1818.50     0.250
1819.00     0.285
1819.50     0.308
1820.00     0.298
1820.50     0.298
1821.00     0.333
1821.50     0.333
1822.00     0.345
1822.50     0.333
1823.00     0.310
1823.50     0.252
1824.00     0.160
1824.50     0.137
1825.00     0.102
1825.50     0.079
1826.00     0.092
1826.50     0.046
1827.00    -0.012
1827.50     0.011
1828.00     0.092
1828.50     0.093
1829.00     0.105
1829.50     0.117
1830.00     0.107
1830.50     0.165
1831.00     0.200
1831.50     0.261
1832.00     0.226
1832.50     0.153
1833.00     0.043
1833.50     0.032
1834.00    -0.005
1834.50    -0.003
1835.00    -0.078
1835.50    -0.087
1836.00    -0.011
1836.50     0.014
1837.00     0.113
1837.50     0.075
1838.00     0.099
1838.50     0.063
1839.00     0.189
1839.50     0.089
1840.00     0.050
1840.50     0.087
1841.00     0.075
1841.50     0.089
1842.00     0.076
1842.50     0.125
1843.00     0.0
