# Y Band (http://www.cfht.hawaii.edu/Instruments/Filters/wircam.html)
# nm       Transmission (%)
938.00     0.0
938.60     0.996
938.80     1.003
939.00     1.028
939.20     1.060
939.40     1.074
939.60     1.096
939.80     1.115
940.00     1.132
940.20     1.141
940.40     1.170
940.60     1.202
940.80     1.230
941.00     1.250
941.20     1.271
941.40     1.286
941.60     1.314
941.80     1.341
942.00     1.379
942.20     1.404
942.40     1.424
942.60     1.457
942.80     1.488
943.00     1.511
943.20     1.546
943.40     1.587
943.60     1.624
943.80     1.642
944.00     1.669
944.20     1.706
944.40     1.729
944.60     1.761
944.80     1.794
945.00     1.837
945.20     1.866
945.40     1.906
945.60     1.953
945.80     1.988
946.00     2.042
946.20     2.095
946.40     2.142
946.60     2.177
946.80     2.223
947.00     2.272
947.20     2.332
947.40     2.380
947.60     2.443
947.80     2.499
948.00     2.557
948.20     2.614
948.40     2.672
948.60     2.731
948.80     2.794
949.00     2.849
949.20     2.907
949.40     2.979
949.60     3.056
949.80     3.137
950.00     3.204
950.20     3.282
950.40     3.355
950.60     3.441
950.80     3.531
951.00     3.613
951.20     3.693
951.40     3.784
951.60     3.873
951.80     3.970
952.00     4.074
952.20     4.185
952.40     4.294
952.60     4.393
952.80     4.500
953.00     4.613
953.20     4.742
953.40     4.871
953.60     4.999
953.80     5.138
954.00     5.273
954.20     5.420
954.40     5.571
954.60     5.725
954.80     5.890
955.00     6.050
955.20     6.216
955.40     6.396
955.60     6.578
955.80     6.772
956.00     6.960
956.20     7.152
956.40     7.332
956.60     7.526
956.80     7.735
957.00     7.942
957.20     8.147
957.40     8.362
957.60     8.586
957.80     8.809
958.00     9.047
958.20     9.291
958.40     9.529
958.60     9.787
958.80    10.045
959.00    10.301
959.20    10.576
959.40    10.863
959.60    11.162
959.80    11.461
960.00    11.761
960.20    12.073
960.40    12.402
960.60    12.729
960.80    13.072
961.00    13.417
961.20    13.762
961.40    14.133
961.60    14.502
961.80    14.868
962.00    15.254
962.20    15.648
962.40    16.046
962.60    16.452
962.80    16.864
963.00    17.293
963.20    17.731
963.40    18.179
963.60    18.633
963.80    19.099
964.00    19.557
964.20    20.039
964.40    20.541
964.60    21.021
964.80    21.533
965.00    22.057
965.20    22.578
965.40    23.105
965.60    23.647
965.80    24.187
966.00    24.748
966.20    25.314
966.40    25.874
966.60    26.437
966.80    27.007
967.00    27.594
967.20    28.186
967.40    28.780
967.60    29.375
967.80    29.987
968.00    30.583
968.20    31.195
968.40    31.812
968.60    32.449
968.80    33.067
969.00    33.698
969.20    34.326
969.40    34.955
969.60    35.596
969.80    36.235
970.00    36.882
970.20    37.524
970.40    38.161
970.60    38.800
970.80    39.433
971.00    40.068
971.20    40.700
971.40    41.319
971.60    41.942
971.80    42.555
972.00    43.172
972.20    43.787
972.40    44.392
972.60    44.998
972.80    45.599
973.00    46.187
973.20    46.768
973.40    47.350
973.60    47.928
973.80    48.485
974.00    49.051
974.20    49.600
974.40    50.146
974.60    50.679
974.80    51.202
975.00    51.706
975.20    52.225
975.40    52.718
975.60    53.209
975.80    53.690
976.00    54.158
976.20    54.619
976.40    55.061
976.60    55.484
976.80    55.907
977.00    56.319
977.20    56.699
977.40    57.085
977.60    57.466
977.80    57.838
978.00    58.192
978.20    58.549
978.40    58.876
978.60    59.198
978.80    59.515
979.00    59.813
979.20    60.109
979.40    60.388
979.60    60.666
979.80    60.933
980.00    61.192
980.20    61.443
980.40    61.693
980.60    61.926
980.80    62.152
981.00    62.370
981.20    62.582
981.40    62.782
981.60    62.978
981.80    63.171
982.00    63.344
982.20    63.513
982.40    63.680
982.60    63.841
982.80    63.998
983.00    64.146
983.20    64.284
983.40    64.430
983.60    64.560
983.80    64.693
984.00    64.816
984.20    64.943
984.40    65.070
984.60    65.193
984.80    65.306
985.00    65.422
985.20    65.533
985.40    65.633
985.60    65.738
985.80    65.839
986.00    65.938
986.20    66.048
986.40    66.153
986.60    66.249
986.80    66.353
987.00    66.452
987.20    66.553
987.40    66.652
987.60    66.742
987.80    66.835
988.00    66.933
988.20    67.018
988.40    67.102
988.60    67.203
988.80    67.285
989.00    67.378
989.20    67.456
989.40    67.537
989.60    67.621
989.80    67.708
990.00    67.792
990.20    67.877
990.40    67.963
990.60    68.042
990.80    68.123
991.00    68.211
991.20    68.295
991.40    68.387
991.60    68.481
991.80    68.565
992.00    68.661
992.20    68.748
992.40    68.855
992.60    68.947
992.80    69.034
993.00    69.127
993.20    69.220
993.40    69.299
993.60    69.379
993.80    69.460
994.00    69.550
994.20    69.621
994.40    69.701
994.60    69.772
994.80    69.849
995.00    69.919
995.20    69.991
995.40    70.064
995.60    70.126
995.80    70.189
996.00    70.259
996.20    70.317
996.40    70.377
996.60    70.438
996.80    70.494
997.00    70.549
997.20    70.599
997.40    70.653
997.60    70.700
997.80    70.746
998.00    70.795
998.20    70.844
998.40    70.889
998.60    70.921
998.80    70.963
999.00    71.005
999.20    71.031
999.40    71.063
999.60    71.100
999.80    71.135
1000.00    71.175
1000.20    71.204
1000.40    71.227
1000.60    71.251
1000.80    71.271
1001.00    71.294
1001.20    71.303
1001.40    71.313
1001.60    71.320
1001.80    71.326
1002.00    71.330
1002.20    71.335
1002.40    71.342
1002.60    71.347
1002.80    71.350
1003.00    71.350
1003.20    71.336
1003.40    71.336
1003.60    71.338
1003.80    71.332
1004.00    71.333
1004.20    71.318
1004.40    71.312
1004.60    71.307
1004.80    71.301
1005.00    71.301
1005.20    71.284
1005.40    71.269
1005.60    71.266
1005.80    71.259
1006.00    71.234
1006.20    71.217
1006.40    71.202
1006.60    71.187
1006.80    71.167
1007.00    71.146
1007.20    71.126
1007.40    71.115
1007.60    71.100
1007.80    71.071
1008.00    71.048
1008.20    71.027
1008.40    71.005
1008.60    70.981
1008.80    70.956
1009.00    70.926
1009.20    70.905
1009.40    70.879
1009.60    70.863
1009.80    70.837
1010.00    70.811
1010.20    70.787
1010.40    70.766
1010.60    70.744
1010.80    70.729
1011.00    70.718
1011.20    70.703
1011.40    70.688
1011.60    70.680
1011.80    70.671
1012.00    70.654
1012.20    70.648
1012.40    70.648
1012.60    70.647
1012.80    70.638
1013.00    70.641
1013.20    70.644
1013.40    70.654
1013.60    70.659
1013.80    70.663
1014.00    70.657
1014.20    70.662
1014.40    70.670
1014.60    70.674
1014.80    70.686
1015.00    70.700
1015.20    70.718
1015.40    70.734
1015.60    70.746
1015.80    70.766
1016.00    70.792
1016.20    70.815
1016.40    70.844
1016.60    70.876
1016.80    70.903
1017.00    70.940
1017.20    70.987
1017.40    71.031
1017.60    71.071
1017.80    71.115
1018.00    71.153
1018.20    71.202
1018.40    71.249
1018.60    71.303
1018.80    71.362
1019.00    71.422
1019.20    71.474
1019.40    71.527
1019.60    71.579
1019.80    71.637
1020.00    71.704
1020.20    71.759
1020.40    71.825
1020.60    71.880
1020.80    71.944
1021.00    72.003
1021.20    72.066
1021.40    72.127
1021.60    72.183
1021.80    72.244
1022.00    72.304
1022.20    72.356
1022.40    72.417
1022.60    72.478
1022.80    72.539
1023.00    72.595
1023.20    72.650
1023.40    72.716
1023.60    72.768
1023.80    72.829
1024.00    72.885
1024.20    72.954
1024.40    73.013
1024.60    73.071
1024.80    73.135
1025.00    73.192
1025.20    73.250
1025.40    73.312
1025.60    73.375
1025.80    73.434
1026.00    73.494
1026.20    73.546
1026.40    73.599
1026.60    73.651
1026.80    73.698
1027.00    73.747
1027.20    73.793
1027.40    73.831
1027.60    73.880
1027.80    73.921
1028.00    73.959
1028.20    74.001
1028.40    74.036
1028.60    74.063
1028.80    74.088
1029.00    74.112
1029.20    74.132
1029.40    74.158
1029.60    74.178
1029.80    74.197
1030.00    74.217
1030.20    74.237
1030.40    74.257
1030.60    74.272
1030.80    74.281
1031.00    74.287
1031.20    74.297
1031.40    74.297
1031.60    74.297
1031.80    74.298
1032.00    74.300
1032.20    74.304
1032.40    74.303
1032.60    74.300
1032.80    74.295
1033.00    74.284
1033.20    74.275
1033.40    74.255
1033.60    74.228
1033.80    74.208
1034.00    74.182
1034.20    74.162
1034.40    74.136
1034.60    74.113
1034.80    74.083
1035.00    74.055
1035.20    74.023
1035.40    73.984
1035.60    73.950
1035.80    73.914
1036.00    73.874
1036.20    73.840
1036.40    73.801
1036.60    73.769
1036.80    73.735
1037.00    73.700
1037.20    73.663
1037.40    73.627
1037.60    73.586
1037.80    73.544
1038.00    73.506
1038.20    73.465
1038.40    73.419
1038.60    73.380
1038.80    73.338
1039.00    73.296
1039.20    73.256
1039.40    73.209
1039.60    73.164
1039.80    73.116
1040.00    73.073
1040.20    73.021
1040.40    72.968
1040.60    72.920
1040.80    72.874
1041.00    72.823
1041.20    72.769
1041.40    72.723
1041.60    72.678
1041.80    72.627
1042.00    72.575
1042.20    72.525
1042.40    72.473
1042.60    72.418
1042.80    72.374
1043.00    72.327
1043.20    72.272
1043.40    72.227
1043.60    72.177
1043.80    72.121
1044.00    72.066
1044.20    72.012
1044.40    71.960
1044.60    71.907
1044.80    71.852
1045.00    71.796
1045.20    71.733
1045.40    71.672
1045.60    71.611
1045.80    71.548
1046.00    71.486
1046.20    71.425
1046.40    71.358
1046.60    71.288
1046.80    71.225
1047.00    71.158
1047.20    71.092
1047.40    71.024
1047.60    70.952
1047.80    70.883
1048.00    70.810
1048.20    70.741
1048.40    70.673
1048.60    70.601
1048.80    70.529
1049.00    70.462
1049.20    70.386
1049.40    70.308
1049.60    70.236
1049.80    70.168
1050.00    70.094
1050.20    70.016
1050.40    69.942
1050.60    69.867
1050.80    69.797
1051.00    69.716
1051.20    69.641
1051.40    69.565
1051.60    69.489
1051.80    69.409
1052.00    69.334
1052.20    69.255
1052.40    69.180
1052.60    69.109
1052.80    69.035
1053.00    68.964
1053.20    68.892
1053.40    68.826
1053.60    68.753
1053.80    68.684
1054.00    68.614
1054.20    68.552
1054.40    68.491
1054.60    68.430
1054.80    68.364
1055.00    68.307
1055.20    68.248
1055.40    68.192
1055.60    68.130
1055.80    68.069
1056.00    68.019
1056.20    67.966
1056.40    67.917
1056.60    67.865
1056.80    67.822
1057.00    67.773
1057.20    67.729
1057.40    67.685
1057.60    67.642
1057.80    67.599
1058.00    67.566
1058.20    67.532
1058.40    67.502
1058.60    67.471
1058.80    67.448
1059.00    67.426
1059.20    67.400
1059.40    67.375
1059.60    67.355
1059.80    67.334
1060.00    67.317
1060.20    67.300
1060.40    67.285
1060.60    67.271
1060.80    67.258
1061.00    67.249
1061.20    67.242
1061.40    67.233
1061.60    67.226
1061.80    67.216
1062.00    67.213
1062.20    67.210
1062.40    67.209
1062.60    67.209
1062.80    67.212
1063.00    67.216
1063.20    67.210
1063.40    67.213
1063.60    67.220
1063.80    67.223
1064.00    67.224
1064.20    67.229
1064.40    67.229
1064.60    67.227
1064.80    67.226
1065.00    67.223
1065.20    67.215
1065.40    67.207
1065.60    67.191
1065.80    67.174
1066.00    67.148
1066.20    67.119
1066.40    67.091
1066.60    67.056
1066.80    67.006
1067.00    66.951
1067.20    66.887
1067.40    66.818
1067.60    66.742
1067.80    66.656
1068.00    66.560
1068.20    66.461
1068.40    66.351
1068.60    66.228
1068.80    66.101
1069.00    65.961
1069.20    65.813
1069.40    65.651
1069.60    65.472
1069.80    65.280
1070.00    65.076
1070.20    64.864
1070.40    64.632
1070.60    64.386
1070.80    64.128
1071.00    63.855
1071.20    63.570
1071.40    63.268
1071.60    62.949
1071.80    62.613
1072.00    62.262
1072.20    61.900
1072.40    61.517
1072.60    61.119
1072.80    60.719
1073.00    60.306
1073.20    59.885
1073.40    59.441
1073.60    58.990
1073.80    58.527
1074.00    58.046
1074.20    57.553
1074.40    57.047
1074.60    56.526
1074.80    55.991
1075.00    55.447
1075.20    54.893
1075.40    54.321
1075.60    53.743
1075.80    53.154
1076.00    52.553
1076.20    51.942
1076.40    51.320
1076.60    50.685
1076.80    50.047
1077.00    49.393
1077.20    48.737
1077.40    48.077
1077.60    47.411
1077.80    46.744
1078.00    46.075
1078.20    45.401
1078.40    44.716
1078.60    44.032
1078.80    43.346
1079.00    42.661
1079.20    41.972
1079.40    41.286
1079.60    40.599
1079.80    39.917
1080.00    39.230
1080.20    38.556
1080.40    37.885
1080.60    37.209
1080.80    36.539
1081.00    35.866
1081.20    35.202
1081.40    34.537
1081.60    33.887
1081.80    33.240
1082.00    32.597
1082.20    31.963
1082.40    31.334
1082.60    30.716
1082.80    30.109
1083.00    29.504
1083.20    28.911
1083.40    28.322
1083.60    27.739
1083.80    27.173
1084.00    26.614
1084.20    26.065
1084.40    25.519
1084.60    24.988
1084.80    24.463
1085.00    23.949
1085.20    23.445
1085.40    22.951
1085.60    22.469
1085.80    21.988
1086.00    21.519
1086.20    21.065
1086.40    20.612
1086.60    20.175
1086.80    19.742
1087.00    19.315
1087.20    18.896
1087.40    18.491
1087.60    18.095
1087.80    17.714
1088.00    17.337
1088.20    16.968
1088.40    16.611
1088.60    16.258
1088.80    15.912
1089.00    15.573
1089.20    15.240
1089.40    14.914
1089.60    14.597
1089.80    14.284
1090.00    13.983
1090.20    13.693
1090.40    13.406
1090.60    13.127
1090.80    12.852
1091.00    12.581
1091.20    12.318
1091.40    12.062
1091.60    11.813
1091.80    11.571
1092.00    11.330
1092.20    11.101
1092.40    10.873
1092.60    10.654
1092.80    10.437
1093.00    10.226
1093.20    10.027
1093.40     9.825
1093.60     9.627
1093.80     9.435
1094.00     9.245
1094.20     9.062
1094.40     8.885
1094.60     8.711
1094.80     8.536
1095.00     8.366
1095.20     8.200
1095.40     8.041
1095.60     7.884
1095.80     7.732
1096.00     7.587
1096.20     7.443
1096.40     7.298
1096.60     7.161
1096.80     7.028
1097.00     6.897
1097.20     6.772
1097.40     6.650
1097.60     6.525
1097.80     6.406
1098.00     6.290
1098.20     6.180
1098.40     6.068
1098.60     5.959
1098.80     5.855
1099.00     5.751
1099.20     5.649
1099.40     5.548
1099.60     5.452
1099.80     5.354
1100.00     5.258
1100.20     5.167
1100.40     5.080
1100.60     4.987
1100.80     4.903
1101.00     4.823
1101.20     4.742
1101.40     4.660
1101.60     4.579
1101.80     4.497
1102.00     4.424
1102.20     4.349
1102.40     4.274
1102.60     4.205
1102.80     4.131
1103.00     4.062
1103.20     4.001
1103.40     3.934
1103.60     3.868
1103.80     3.807
1104.00     3.748
1104.20     3.688
1104.40     3.629
1104.60     3.569
1104.80     3.516
1105.00     3.464
1105.20     3.409
1105.40     3.358
1105.60     3.313
1105.80     3.261
1106.00     3.215
1106.20     3.171
1106.40     3.116
1106.60     3.075
1106.80     3.024
1107.00     2.977
1107.20     2.930
1107.40     2.885
1107.60     2.843
1107.80     2.802
1108.00     2.759
1108.20     2.722
1108.40     2.679
1108.60     2.638
1108.80     2.597
1109.00     2.563
1109.20     2.525
1109.40     2.489
1109.60     2.457
1109.80     2.419
1110.00     2.390
1110.20     2.356
1110.40     2.324
1110.60     2.289
1110.80     2.260
1111.00     2.231
1111.20     2.206
1111.40     2.173
1111.60     2.139
1111.80     2.107
1112.00     2.080
1112.20     2.043
1112.40     2.019
1112.60     1.991
1112.80     1.965
1113.00     1.938
1113.20     1.915
1113.40     1.889
1114.00     0.0
